ALV-5000/E-WIN Data
Date :	"14.01.2011"
Time :	"12:07:01"
Samplename : 	""
SampMemo(0) : 	""
SampMemo(1) : 	""
SampMemo(2) : 	""
SampMemo(3) : 	""
SampMemo(4) : 	""
SampMemo(5) : 	""
SampMemo(6) : 	""
SampMemo(7) : 	""
SampMemo(8) : 	""
SampMemo(9) : 	""
Temperature [K] :	     298.16000
Viscosity [cp]  :	       0.89000
Refractive Index:	       1.33200
Wavelength [nm] :	     632.80000
Angle [°]       :	      90.00000
Duration [s]    :	        30
Runs            :	         1
Mode            :	"SINGLE AUTO CH0"
MeanCR0 [kHz]   :	      95.37508
MeanCR1 [kHz]   :	       0.00000

"Correlation"
  2.00000E-004	  5.39867E-001
  4.00000E-004	  2.62390E-001
  6.00000E-004	  2.12258E-001
  8.00000E-004	  1.84110E-001
  1.00000E-003	  1.67701E-001
  1.20000E-003	  1.71946E-001
  1.40000E-003	  1.76173E-001
  1.60000E-003	  1.50480E-001
  1.80000E-003	  1.63640E-001
  2.00000E-003	  1.61351E-001
  2.20000E-003	  1.59653E-001
  2.40000E-003	  1.59358E-001
  2.60000E-003	  1.60835E-001
  2.80000E-003	  1.53858E-001
  3.00000E-003	  1.51347E-001
  3.20000E-003	  1.46010E-001
  3.60000E-003	  1.45816E-001
  4.00000E-003	  1.50929E-001
  4.40000E-003	  1.43186E-001
  4.80000E-003	  1.44543E-001
  5.20000E-003	  1.41054E-001
  5.60000E-003	  1.40814E-001
  6.00000E-003	  1.35701E-001
  6.40000E-003	  1.35108E-001
  7.20000E-003	  1.28417E-001
  8.00000E-003	  1.29598E-001
  8.80000E-003	  1.24965E-001
  9.60000E-003	  1.29810E-001
  1.04000E-002	  1.24177E-001
  1.12000E-002	  1.20577E-001
  1.20000E-002	  1.21440E-001
  1.28000E-002	  1.17747E-001
  1.44000E-002	  1.14937E-001
  1.60000E-002	  1.12161E-001
  1.76000E-002	  1.08167E-001
  1.92000E-002	  1.07680E-001
  2.08000E-002	  1.04263E-001
  2.24000E-002	  1.03780E-001
  2.40000E-002	  1.00791E-001
  2.56000E-002	  9.99838E-002
  2.88000E-002	  9.54936E-002
  3.20000E-002	  9.38452E-002
  3.52000E-002	  8.86351E-002
  3.84000E-002	  8.31213E-002
  4.16000E-002	  8.26445E-002
  4.48000E-002	  7.87857E-002
  4.80000E-002	  7.64220E-002
  5.12000E-002	  7.53131E-002
  5.76000E-002	  7.25537E-002
  6.40000E-002	  7.01783E-002
  7.04000E-002	  6.60035E-002
  7.68000E-002	  6.37290E-002
  8.32000E-002	  6.00989E-002
  8.96000E-002	  5.92443E-002
  9.60000E-002	  5.66733E-002
  1.02400E-001	  5.49341E-002
  1.15200E-001	  5.11746E-002
  1.28000E-001	  4.83375E-002
  1.40800E-001	  4.59995E-002
  1.53600E-001	  4.38472E-002
  1.66400E-001	  4.24774E-002
  1.79200E-001	  3.98031E-002
  1.92000E-001	  3.82003E-002
  2.04800E-001	  3.62432E-002
  2.30400E-001	  3.38995E-002
  2.56000E-001	  3.24001E-002
  2.81600E-001	  2.99778E-002
  3.07200E-001	  2.93784E-002
  3.32800E-001	  2.71791E-002
  3.58400E-001	  2.63916E-002
  3.84000E-001	  2.50250E-002
  4.09600E-001	  2.42043E-002
  4.60800E-001	  2.28220E-002
  5.12000E-001	  2.13919E-002
  5.63200E-001	  2.04500E-002
  6.14400E-001	  1.88438E-002
  6.65600E-001	  1.79926E-002
  7.16800E-001	  1.63453E-002
  7.68000E-001	  1.61171E-002
  8.19200E-001	  1.54094E-002
  9.21600E-001	  1.40711E-002
  1.02400E+000	  1.33756E-002
  1.12640E+000	  1.27695E-002
  1.22880E+000	  1.15780E-002
  1.33120E+000	  1.14736E-002
  1.43360E+000	  1.01830E-002
  1.53600E+000	  9.66954E-003
  1.63840E+000	  9.16988E-003
  1.84320E+000	  8.71327E-003
  2.04800E+000	  7.69118E-003
  2.25280E+000	  7.38113E-003
  2.45760E+000	  7.01577E-003
  2.66240E+000	  6.00270E-003
  2.86720E+000	  5.68067E-003
  3.07200E+000	  5.68145E-003
  3.22560E+000	  5.50331E-003
  3.63520E+000	  4.73822E-003
  4.04480E+000	  4.26221E-003
  4.45440E+000	  4.28985E-003
  4.86400E+000	  4.28110E-003
  5.27360E+000	  3.59718E-003
  5.68320E+000	  3.35975E-003
  6.09280E+000	  3.01871E-003
  6.50240E+000	  2.75983E-003
  7.32160E+000	  2.81014E-003
  8.14080E+000	  2.34673E-003
  8.96000E+000	  2.57938E-003
  9.77920E+000	  2.10181E-003
  1.05984E+001	  1.72954E-003
  1.14176E+001	  2.00233E-003
  1.22368E+001	  1.96281E-003
  1.30560E+001	  2.01801E-003
  1.46944E+001	  1.65788E-003
  1.63328E+001	  1.17622E-003
  1.79712E+001	  1.45189E-003
  1.96096E+001	  1.00865E-003
  2.12480E+001	  9.90402E-004
  2.28864E+001	  1.54886E-003
  2.45248E+001	  1.55178E-003
  2.61632E+001	  1.08890E-003
  2.94400E+001	  5.55628E-004
  3.27168E+001	  4.70614E-004
  3.59936E+001	  1.52994E-004
  3.92704E+001	  3.45619E-004
  4.25472E+001	  2.94182E-004
  4.58240E+001	  5.36177E-004
  4.91008E+001	  2.14969E-004
  5.23776E+001	  4.67354E-004
  5.89312E+001	  4.68774E-004
  6.54848E+001	  5.07693E-004
  7.20384E+001	  2.64502E-004
  7.85920E+001	  3.84889E-004
  8.51456E+001	  3.70304E-004
  9.16992E+001	  2.15818E-004
  9.82528E+001	  1.30433E-004
  1.04806E+002	 -4.60574E-005
  1.17914E+002	 -7.43717E-005
  1.31021E+002	  8.56948E-006
  1.44128E+002	  5.93755E-005
  1.57235E+002	 -7.65554E-005
  1.70342E+002	 -1.05512E-004
  1.83450E+002	  2.12562E-004
  1.96557E+002	 -3.13394E-005
  2.09664E+002	  1.56766E-004
  2.35878E+002	 -1.10114E-004
  2.62093E+002	 -3.77604E-005
  2.88307E+002	  3.01468E-005
  3.14522E+002	  1.30476E-004
  3.40736E+002	  4.19078E-004
  3.66950E+002	  2.34648E-004
  3.93165E+002	  3.52525E-004
  4.19379E+002	  2.40384E-004
  4.71808E+002	  1.83960E-004
  5.24237E+002	  1.02842E-004
  5.76666E+002	  2.96661E-004
  6.29094E+002	  9.95548E-005
  6.81523E+002	 -1.61581E-004
  7.33952E+002	  5.13658E-006
  7.86381E+002	  2.09492E-004
  8.38810E+002	  9.39498E-005
  9.43667E+002	 -1.00662E-005
  1.04852E+003	 -2.20205E-004
  1.15338E+003	 -1.43139E-004
  1.25824E+003	  2.23040E-004
  1.36310E+003	 -1.47536E-004
  1.46796E+003	  4.66974E-005
  1.57281E+003	 -1.58088E-004
  1.67767E+003	 -4.78961E-005
  1.88739E+003	 -1.26969E-004
  2.09710E+003	 -1.25906E-004
  2.30682E+003	 -3.17374E-005
  2.51653E+003	  1.19041E-004
  2.72625E+003	  1.39690E-004
  2.93596E+003	  9.82394E-005
  3.14568E+003	  9.84099E-006
  3.35539E+003	  1.63420E-005
  3.77482E+003	 -6.27155E-005
  4.19425E+003	  5.57459E-005
  4.61368E+003	 -1.21427E-004
  5.03311E+003	 -6.97467E-005
  5.45254E+003	  2.76977E-005
  5.87197E+003	 -9.21465E-006
  6.29140E+003	 -3.15661E-005

"Count Rate"
       0.11719	      93.58440
       0.23438	      99.46597
       0.35156	      86.68700
       0.46875	      94.66851
       0.58594	      91.35640
       0.70313	      90.98933
       0.82031	      94.19901
       0.93750	      85.96140
       1.05469	      97.50259
       1.17188	      98.79159
       1.28906	      92.59417
       1.40625	      96.52091
       1.52344	      93.87463
       1.64063	     105.65484
       1.75781	      96.51237
       1.87500	     103.20490
       1.99219	      96.06848
       2.10938	      99.41474
       2.22656	      99.34645
       2.34375	      90.54544
       2.46094	      99.79888
       2.57813	      93.66975
       2.69531	      95.44533
       2.81250	      94.26730
       2.92969	     104.05000
       3.04688	      95.50508
       3.16406	     100.73788
       3.28125	      92.07346
       3.39844	     104.83535
       3.51563	      98.52696
       3.63281	      96.50384
       3.75000	      94.47218
       3.86719	      92.29539
       3.98438	      95.44533
       4.10156	      97.02456
       4.21875	      95.13802
       4.33594	      98.76598
       4.45313	     100.07204
       4.57031	      92.50027
       4.68750	      99.14158
       4.80469	      97.43430
       4.92188	      93.09782
       5.03906	      96.83675
       5.15625	      96.70017
       5.27344	      94.25023
       5.39063	      92.32101
       5.50781	      98.39038
       5.62500	      95.12948
       5.74219	     102.76101
       5.85938	      99.50011
       5.97656	      93.97707
       6.09375	      93.03806
       6.21094	      94.39535
       6.32813	      96.17945
       6.44531	      94.43803
       6.56250	      95.50508
       6.67969	     102.09517
       6.79688	      93.25147
       6.91406	      99.01353
       7.03125	      96.29897
       7.14844	      95.53069
       7.26563	      97.75868
       7.38281	      93.78927
       7.50000	      98.25380
       7.61719	      91.80882
       7.73438	      93.08075
       7.85156	      94.09657
       7.96875	      99.92693
       8.08594	      92.19296
       8.20313	      89.46986
       8.32031	      89.80277
       8.43750	      99.34645
       8.55469	      99.32085
       8.67188	      99.46597
       8.78906	      97.98917
       8.90625	      92.67953
       9.02344	      92.10760
       9.14063	      99.60255
       9.25781	      93.66975
       9.37500	      94.53193
       9.49219	      87.50648
       9.60938	      96.46115
       9.72656	      92.53442
       9.84375	      93.58440
       9.96094	      91.02348
      10.07813	      97.18674
      10.19531	      92.16735
      10.31250	      94.11365
      10.42969	      89.55522
      10.54688	      91.52712
      10.66406	     100.90862
      10.78125	      92.44905
      10.89844	      90.91251
      11.01563	      92.93563
      11.13281	      89.66619
      11.25000	     102.23175
      11.36719	     101.46348
      11.48438	      94.44657
      11.60156	      93.87463
      11.71875	      98.17697
      11.83594	      93.11489
      11.95313	     100.80618
      12.07031	      98.94524
      12.18750	      95.87215
      12.30469	      89.03450
      12.42188	      94.12218
      12.53906	     104.13537
      12.65625	      94.34413
      12.77344	      94.56608
      12.89063	     105.57801
      13.00781	      91.55273
      13.12500	      96.61481
      13.24219	      95.59045
      13.35938	     100.24277
      13.47656	      99.80742
      13.59375	      88.60768
      13.71094	      99.44035
      13.82813	      96.73432
      13.94531	      96.58067
      14.06250	      93.90024
      14.17969	     100.78910
      14.29688	      97.34040
      14.41406	      93.15757
      14.53125	      96.29897
      14.64844	      98.75744
      14.76563	      92.42345
      14.88281	      92.64539
      15.00000	      97.64771
      15.11719	      98.97086
      15.23438	      92.97831
      15.35156	      96.93919
      15.46875	      95.59898
      15.58594	      99.50864
      15.70313	      95.09533
      15.82031	      90.99787
      15.93750	      93.79781
      16.05469	      95.94044
      16.17188	      94.30145
      16.28906	      99.45743
      16.40625	      98.05746
      16.52344	      94.18194
      16.64063	      91.68078
      16.75781	      91.23689
      16.87500	      91.59541
      16.99219	      96.13677
      17.10938	      96.64042
      17.22656	      92.83319
      17.34375	      94.20755
      17.46094	     100.72081
      17.57813	      94.48925
      17.69531	      92.15881
      17.81250	      93.86610
      17.92969	      92.77344
      18.04688	      94.72827
      18.16406	     101.90737
      18.28125	      95.02704
      18.39844	      94.63437
      18.51563	      93.89170
      18.63281	      88.00159
      18.75000	     104.80974
      18.86719	      96.46115
      18.98438	      95.86361
      19.10156	      98.41599
      19.21875	      91.98809
      19.33594	      94.07951
      19.45313	      95.15509
      19.57031	      94.14780
      19.68750	      94.60876
      19.80469	      97.54527
      19.92188	      97.48552
      20.03906	      97.40015
      20.15625	      90.39178
      20.27344	      94.06243
      20.39063	     101.16470
      20.50781	      92.28687
      20.62500	      93.67829
      20.74219	      90.96372
      20.85938	      88.84670
      20.97656	      85.12483
      21.09375	      90.86128
      21.21094	      95.59898
      21.32813	      96.40140
      21.44531	      90.75031
      21.56250	      95.94044
      21.67969	     100.31107
      21.79688	     102.53053
      21.91406	      92.31247
      22.03125	      96.28189
      22.14844	      96.93066
      22.26563	      99.20133
      22.38281	      94.02828
      22.50000	      98.78305
      22.61719	      99.02207
      22.73438	      96.90504
      22.85156	     100.94276
      22.96875	      93.85756
      23.08594	      92.96977
      23.20313	      95.62459
      23.32031	      92.38076
      23.43750	      90.57105
      23.55469	      86.73821
      23.67188	      90.05887
      23.78906	      87.59185
      23.90625	      82.93098
      24.02344	      89.12840
      24.14063	      90.98933
      24.25781	      94.19048
      24.37500	      89.41864
      24.49219	      95.25752
      24.60938	      94.76241
      24.72656	      96.49530
      24.84375	      95.79532
      24.96094	      91.80029
      25.07813	      97.92088
      25.19531	     104.57072
      25.31250	      98.18550
      25.42969	      88.44549
      25.54688	      97.41723
      25.66406	     100.60984
      25.78125	      94.42096
      25.89844	     101.77079
      26.01563	      95.71849
      26.13281	      93.70390
      26.25000	      90.50275
      26.36719	      96.42701
      26.48438	      99.34645
      26.60156	      91.28811
      26.71875	      94.65144
      26.83594	      97.58796
      26.95313	     100.31107
      27.07031	      98.95378
      27.18750	      96.71725
      27.30469	      94.28438
      27.42188	      95.59045
      27.53906	      93.40513
      27.65625	      95.93190
      27.77344	      96.29043
      27.89063	      92.13321
      28.00781	      90.36617
      28.12500	      97.43430
      28.24219	      94.36121
      28.35938	      98.77451
      28.47656	      94.37827
      28.59375	      94.54900
      28.71094	     103.49513
      28.82813	      91.17713
      28.94531	     102.89759
      29.06250	     100.25985
      29.17969	      90.62227
      29.29688	      90.61373
      29.41406	      95.28313
      29.53125	      94.83070
      29.64844	      92.91002
      29.76563	      98.16843
      29.88281	      98.80013
