ALV-5000/E-WIN Data
Date :	"14.01.2011"
Time :	"12:05:08"
Samplename : 	""
SampMemo(0) : 	""
SampMemo(1) : 	""
SampMemo(2) : 	""
SampMemo(3) : 	""
SampMemo(4) : 	""
SampMemo(5) : 	""
SampMemo(6) : 	""
SampMemo(7) : 	""
SampMemo(8) : 	""
SampMemo(9) : 	""
Temperature [K] :	     298.16000
Viscosity [cp]  :	       0.89000
Refractive Index:	       1.33200
Wavelength [nm] :	     632.80000
Angle [°]       :	      90.00000
Duration [s]    :	        30
Runs            :	         1
Mode            :	"SINGLE AUTO CH0"
MeanCR0 [kHz]   :	      50.99590
MeanCR1 [kHz]   :	       0.00000

"Correlation"
  2.00000E-004	  1.11569E+000
  4.00000E-004	  5.76420E-001
  6.00000E-004	  4.84413E-001
  8.00000E-004	  4.40800E-001
  1.00000E-003	  4.33335E-001
  1.20000E-003	  3.95157E-001
  1.40000E-003	  3.91883E-001
  1.60000E-003	  3.68374E-001
  1.80000E-003	  3.65362E-001
  2.00000E-003	  3.74922E-001
  2.20000E-003	  3.77149E-001
  2.40000E-003	  3.74988E-001
  2.60000E-003	  3.62349E-001
  2.80000E-003	  3.43686E-001
  3.00000E-003	  3.67523E-001
  3.20000E-003	  3.63393E-001
  3.60000E-003	  3.49217E-001
  4.00000E-003	  3.38379E-001
  4.40000E-003	  3.44142E-001
  4.80000E-003	  3.41817E-001
  5.20000E-003	  3.45975E-001
  5.60000E-003	  3.42341E-001
  6.00000E-003	  3.32485E-001
  6.40000E-003	  3.32701E-001
  7.20000E-003	  3.14398E-001
  8.00000E-003	  3.18769E-001
  8.80000E-003	  3.17901E-001
  9.60000E-003	  3.06900E-001
  1.04000E-002	  3.08422E-001
  1.12000E-002	  2.98583E-001
  1.20000E-002	  2.91789E-001
  1.28000E-002	  2.93169E-001
  1.44000E-002	  2.84353E-001
  1.60000E-002	  2.80129E-001
  1.76000E-002	  2.73303E-001
  1.92000E-002	  2.71698E-001
  2.08000E-002	  2.64004E-001
  2.24000E-002	  2.55867E-001
  2.40000E-002	  2.53559E-001
  2.56000E-002	  2.50651E-001
  2.88000E-002	  2.44184E-001
  3.20000E-002	  2.33076E-001
  3.52000E-002	  2.30960E-001
  3.84000E-002	  2.23675E-001
  4.16000E-002	  2.14470E-001
  4.48000E-002	  2.08331E-001
  4.80000E-002	  2.09203E-001
  5.12000E-002	  2.02292E-001
  5.76000E-002	  1.95820E-001
  6.40000E-002	  1.85887E-001
  7.04000E-002	  1.80257E-001
  7.68000E-002	  1.72840E-001
  8.32000E-002	  1.69691E-001
  8.96000E-002	  1.64720E-001
  9.60000E-002	  1.58285E-001
  1.02400E-001	  1.55916E-001
  1.15200E-001	  1.48111E-001
  1.28000E-001	  1.41696E-001
  1.40800E-001	  1.35733E-001
  1.53600E-001	  1.29495E-001
  1.66400E-001	  1.24972E-001
  1.79200E-001	  1.21448E-001
  1.92000E-001	  1.17671E-001
  2.04800E-001	  1.15212E-001
  2.30400E-001	  1.08603E-001
  2.56000E-001	  1.02395E-001
  2.81600E-001	  9.71242E-002
  3.07200E-001	  9.25965E-002
  3.32800E-001	  9.11634E-002
  3.58400E-001	  8.55995E-002
  3.84000E-001	  8.20410E-002
  4.09600E-001	  8.11641E-002
  4.60800E-001	  7.66614E-002
  5.12000E-001	  7.32860E-002
  5.63200E-001	  6.88066E-002
  6.14400E-001	  6.46176E-002
  6.65600E-001	  6.25309E-002
  7.16800E-001	  5.99133E-002
  7.68000E-001	  5.69463E-002
  8.19200E-001	  5.47780E-002
  9.21600E-001	  5.04843E-002
  1.02400E+000	  4.81835E-002
  1.12640E+000	  4.53523E-002
  1.22880E+000	  4.33808E-002
  1.33120E+000	  4.09938E-002
  1.43360E+000	  3.78055E-002
  1.53600E+000	  3.66070E-002
  1.63840E+000	  3.55984E-002
  1.84320E+000	  3.29228E-002
  2.04800E+000	  3.01124E-002
  2.25280E+000	  2.78402E-002
  2.45760E+000	  2.57817E-002
  2.66240E+000	  2.36540E-002
  2.86720E+000	  2.27680E-002
  3.07200E+000	  2.18418E-002
  3.22560E+000	  2.08246E-002
  3.63520E+000	  1.84554E-002
  4.04480E+000	  1.70593E-002
  4.45440E+000	  1.60812E-002
  4.86400E+000	  1.44810E-002
  5.27360E+000	  1.32756E-002
  5.68320E+000	  1.24047E-002
  6.09280E+000	  1.31288E-002
  6.50240E+000	  1.18589E-002
  7.32160E+000	  9.67835E-003
  8.14080E+000	  8.16975E-003
  8.96000E+000	  7.82366E-003
  9.77920E+000	  8.13492E-003
  1.05984E+001	  7.72529E-003
  1.14176E+001	  5.34528E-003
  1.22368E+001	  5.09070E-003
  1.30560E+001	  5.52163E-003
  1.46944E+001	  5.83352E-003
  1.63328E+001	  4.28430E-003
  1.79712E+001	  4.90279E-003
  1.96096E+001	  5.09287E-003
  2.12480E+001	  3.76260E-003
  2.28864E+001	  2.77050E-003
  2.45248E+001	  2.17663E-003
  2.61632E+001	  2.76405E-003
  2.94400E+001	  2.30847E-003
  3.27168E+001	  1.54951E-003
  3.59936E+001	  1.57507E-003
  3.92704E+001	  8.93161E-004
  4.25472E+001	  7.84291E-004
  4.58240E+001	  1.42150E-003
  4.91008E+001	  1.29177E-003
  5.23776E+001	  1.44444E-003
  5.89312E+001	  9.55762E-004
  6.54848E+001	  8.14534E-004
  7.20384E+001	  9.32243E-004
  7.85920E+001	 -1.62462E-004
  8.51456E+001	 -5.91345E-004
  9.16992E+001	 -1.99978E-004
  9.82528E+001	 -2.52991E-004
  1.04806E+002	 -5.41671E-004
  1.17914E+002	 -4.68013E-004
  1.31021E+002	  3.92587E-004
  1.44128E+002	  2.29192E-004
  1.57235E+002	 -2.51784E-005
  1.70342E+002	 -8.93552E-004
  1.83450E+002	 -6.69107E-004
  1.96557E+002	 -2.43139E-004
  2.09664E+002	  6.59743E-004
  2.35878E+002	  6.70947E-005
  2.62093E+002	 -6.10403E-004
  2.88307E+002	 -1.68742E-004
  3.14522E+002	 -1.06094E-003
  3.40736E+002	 -1.54028E-003
  3.66950E+002	 -1.09526E-003
  3.93165E+002	 -9.95591E-005
  4.19379E+002	  2.21732E-004
  4.71808E+002	 -1.04286E-004
  5.24237E+002	 -9.41343E-004
  5.76666E+002	 -1.42817E-004
  6.29094E+002	 -2.81897E-004
  6.81523E+002	 -7.04180E-005
  7.33952E+002	 -1.50858E-004
  7.86381E+002	 -2.59003E-004
  8.38810E+002	  1.43142E-005
  9.43667E+002	  3.25599E-004
  1.04852E+003	  3.72730E-004
  1.15338E+003	  4.26390E-005
  1.25824E+003	 -7.40705E-005
  1.36310E+003	 -9.57640E-005
  1.46796E+003	 -1.51506E-004
  1.57281E+003	  5.46399E-004
  1.67767E+003	  1.63776E-004
  1.88739E+003	 -1.30105E-004
  2.09710E+003	  1.49320E-004
  2.30682E+003	  5.50174E-005
  2.51653E+003	  2.12374E-004
  2.72625E+003	 -2.60428E-005
  2.93596E+003	 -3.31176E-005
  3.14568E+003	  2.29146E-004
  3.35539E+003	 -3.01142E-004
  3.77482E+003	  4.99136E-004
  4.19425E+003	 -1.60262E-004
  4.61368E+003	 -2.85700E-004
  5.03311E+003	  2.02916E-004
  5.45254E+003	 -6.74730E-005
  5.87197E+003	 -1.53288E-004
  6.29140E+003	  3.44883E-004

"Count Rate"
       0.11719	      55.44382
       0.23438	      49.88663
       0.35156	      45.99405
       0.46875	      55.12798
       0.58594	      49.16105
       0.70313	      52.89998
       0.82031	      48.52935
       0.93750	      52.57560
       1.05469	      51.98659
       1.17188	      51.52562
       1.28906	      52.35365
       1.40625	      54.28288
       1.52344	      51.47440
       1.64063	      50.33053
       1.75781	      51.27807
       1.87500	      48.72569
       1.99219	      48.80252
       2.10938	      49.43421
       2.22656	      47.47084
       2.34375	      52.12317
       2.46094	      47.36840
       2.57813	      46.71964
       2.69531	      46.70256
       2.81250	      46.18185
       2.92969	      54.48775
       3.04688	      60.59980
       3.16406	      53.43777
       3.28125	      47.78669
       3.39844	      46.25867
       3.51563	      54.53043
       3.63281	      50.22809
       3.75000	      50.24516
       3.86719	      52.02073
       3.98438	      53.49753
       4.10156	      54.44506
       4.21875	      49.98907
       4.33594	      48.94763
       4.45313	      43.15997
       4.57031	      47.25743
       4.68750	      44.96968
       4.80469	      54.70969
       4.92188	      57.70597
       5.03906	      47.99156
       5.15625	      50.93661
       5.27344	      55.22188
       5.39063	      51.11588
       5.50781	      45.88307
       5.62500	      41.39293
       5.74219	      51.56830
       5.85938	      52.43901
       5.97656	      54.70969
       6.09375	      56.66453
       6.21094	      52.98534
       6.32813	      54.58165
       6.44531	      46.34404
       6.56250	      49.10983
       6.67969	      51.85854
       6.79688	      52.35365
       6.91406	      53.78777
       7.03125	      48.10253
       7.14844	      48.35009
       7.26563	      47.67571
       7.38281	      63.54485
       7.50000	      49.25494
       7.61719	      57.73158
       7.73438	      47.94888
       7.85156	      48.55496
       7.96875	      48.04278
       8.08594	      47.91473
       8.20313	      50.14273
       8.32031	      48.74276
       8.43750	      55.46943
       8.55469	      54.43653
       8.67188	      49.53664
       8.78906	      56.88647
       8.90625	      51.32928
       9.02344	      48.61472
       9.14063	      55.17066
       9.25781	      49.02446
       9.37500	      52.49023
       9.49219	      47.35133
       9.60938	      51.61952
       9.72656	      54.22312
       9.84375	      55.52919
       9.96094	      54.59872
      10.07813	      55.29871
      10.19531	      58.33766
      10.31250	      57.19378
      10.42969	      45.79771
      10.54688	      50.42443
      10.66406	      54.54750
      10.78125	      45.37943
      10.89844	      51.02198
      11.01563	      57.82547
      11.13281	      50.45857
      11.25000	      49.45128
      11.36719	      45.39650
      11.48438	      50.80003
      11.60156	      48.77691
      11.71875	      47.20621
      11.83594	      43.83434
      11.95313	      58.16693
      12.07031	      55.27309
      12.18750	      57.39012
      12.30469	      49.88663
      12.42188	      48.87081
      12.53906	      49.93785
      12.65625	      52.10610
      12.77344	      52.03780
      12.89063	      53.46338
      13.00781	      49.43421
      13.12500	      52.97681
      13.24219	      52.35365
      13.35938	      51.42319
      13.47656	      48.20497
      13.59375	      50.67198
      13.71094	      54.51336
      13.82813	      62.37537
      13.94531	      52.60974
      14.06250	      46.09648
      14.17969	      59.91689
      14.29688	      51.27807
      14.41406	      50.41589
      14.53125	      46.82207
      14.64844	      44.19287
      14.76563	      52.99388
      14.88281	      48.74276
      15.00000	      52.50731
      15.11719	      57.43280
      15.23438	      51.50855
      15.35156	      52.32804
      15.46875	      53.01095
      15.58594	      52.37926
      15.70313	      48.65740
      15.82031	      59.87421
      15.93750	      50.17687
      16.05469	      57.33036
      16.17188	      47.71840
      16.28906	      50.95369
      16.40625	      46.46355
      16.52344	      51.58538
      16.64063	      52.22561
      16.75781	      49.28909
      16.87500	      46.37818
      16.99219	      45.69527
      17.10938	      46.51476
      17.22656	      52.82315
      17.34375	      56.74135
      17.46094	      50.62077
      17.57813	      51.96098
      17.69531	      55.88771
      17.81250	      47.39401
      17.92969	      50.15980
      18.04688	      53.12193
      18.16406	      54.12068
      18.28125	      50.43296
      18.39844	      50.56101
      18.51563	      48.29033
      18.63281	      43.41606
      18.75000	      51.30368
      18.86719	      49.40860
      18.98438	      60.42907
      19.10156	      49.05007
      19.21875	      47.87205
      19.33594	      47.99156
      19.45313	      53.89020
      19.57031	      48.36716
      19.68750	      47.78669
      19.80469	      54.29995
      19.92188	      49.91225
      20.03906	      49.98907
      20.15625	      43.08314
      20.27344	      54.27434
      20.39063	      54.10361
      20.50781	      52.84876
      20.62500	      50.51833
      20.74219	      50.89393
      20.85938	      44.37213
      20.97656	      53.54874
      21.09375	      53.81337
      21.21094	      51.06466
      21.32813	      43.39898
      21.44531	      52.31951
      21.56250	      49.97200
      21.67969	      56.03283
      21.79688	      48.35009
      21.91406	      50.86832
      22.03125	      59.31081
      22.14844	      50.56955
      22.26563	      54.56458
      22.38281	      48.65740
      22.50000	      51.29514
      22.61719	      48.52081
      22.73438	      46.21599
      22.85156	      50.56101
      22.96875	      57.94498
      23.08594	      46.64281
      23.20313	      48.91349
      23.32031	      55.69138
      23.43750	      48.19643
      23.55469	      54.01825
      23.67188	      49.85249
      23.78906	      47.21475
      23.90625	      54.18897
      24.02344	      56.41697
      24.14063	      53.54021
      24.25781	      50.30492
      24.37500	      52.43901
      24.49219	      47.94034
      24.60938	      59.41324
      24.72656	      47.97449
      24.84375	      54.11215
      24.96094	      50.83418
      25.07813	      50.34760
      25.19531	      45.58430
      25.31250	      49.19519
      25.42969	      48.22204
      25.54688	      48.33302
      25.66406	      54.06093
      25.78125	      49.49396
      25.89844	      51.34636
      26.01563	      52.82315
      26.13281	      50.55247
      26.25000	      43.55264
      26.36719	      48.06839
      26.48438	      49.78420
      26.60156	      50.45857
      26.71875	      48.26472
      26.83594	      49.01593
      26.95313	      45.85746
      27.07031	      49.44275
      27.18750	      49.63054
      27.30469	      49.78420
      27.42188	      48.51228
      27.53906	      54.47921
      27.65625	      48.74276
      27.77344	      51.35489
      27.89063	      46.98426
      28.00781	      42.95509
      28.12500	      53.01095
      28.24219	      44.93553
      28.35938	      53.00242
      28.47656	      51.46587
      28.59375	      55.53772
      28.71094	      59.06325
      28.82813	      48.33302
      28.94531	      42.26365
      29.06250	      48.88788
      29.17969	      54.27434
      29.29688	      53.59996
      29.41406	      53.16461
      29.53125	      46.89890
      29.64844	      56.98891
      29.76563	      52.31951
      29.88281	      49.98907
